# time(ps)	msd(nm^2)	#D_bar=2.059417052685065e-09,D_std=1.9084344617989456e-10
5.000000000000000000e+03 0.000000000000000000e+00
5.001000000000000000e+03 1.437175193599085805e-02
5.002000000000000000e+03 2.429605956892208485e-02
5.003000000000000000e+03 3.323955863768503910e-02
5.004000000000000000e+03 4.281616601335256483e-02
5.005000000000000000e+03 5.145665632281506974e-02
5.006000000000000000e+03 6.002442505262658989e-02
5.007000000000000000e+03 6.788042002217878346e-02
5.008000000000000000e+03 7.607756155182827940e-02
5.009000000000000000e+03 8.491864626742016975e-02
5.010000000000000000e+03 9.340073014470974544e-02
5.011000000000000000e+03 1.009494021001119540e-01
5.012000000000000000e+03 1.094465247594593182e-01
5.013000000000000000e+03 1.170366229110583745e-01
5.014000000000000000e+03 1.249981375267524702e-01
5.015000000000000000e+03 1.333831941531366250e-01
5.016000000000000000e+03 1.416436549056712402e-01
5.017000000000000000e+03 1.495709446030960288e-01
5.018000000000000000e+03 1.585577791505823897e-01
5.019000000000000000e+03 1.668123358223896624e-01
5.020000000000000000e+03 1.750442931054213280e-01
5.021000000000000000e+03 1.838463019369294404e-01
5.022000000000000000e+03 1.909974773471544429e-01
5.023000000000000000e+03 1.996928941827148252e-01
5.024000000000000000e+03 2.066274570130405275e-01
5.025000000000000000e+03 2.151217946299801287e-01
5.026000000000000000e+03 2.231819937282716604e-01
5.027000000000000000e+03 2.310144332009658463e-01
5.028000000000000000e+03 2.382110046413933035e-01
5.029000000000000000e+03 2.467574289008639676e-01
5.030000000000000000e+03 2.549668255544243478e-01
5.031000000000000000e+03 2.621675004507458273e-01
5.032000000000000000e+03 2.704126853688094689e-01
5.033000000000000000e+03 2.782663981264551500e-01
5.034000000000000000e+03 2.862922416792976210e-01
5.035000000000000000e+03 2.943463704407977555e-01
5.036000000000000000e+03 3.020537255312649161e-01
5.037000000000000000e+03 3.100363485148696641e-01
5.038000000000000000e+03 3.182959150891630506e-01
5.039000000000000000e+03 3.267296009448780736e-01
5.040000000000000000e+03 3.349292607979117986e-01
5.041000000000000000e+03 3.427282309778254543e-01
5.042000000000000000e+03 3.512264027983476034e-01
5.043000000000000000e+03 3.592367762135389442e-01
5.044000000000000000e+03 3.674756039542434460e-01
5.045000000000000000e+03 3.756880005273083856e-01
5.046000000000000000e+03 3.853774148909772101e-01
5.047000000000000000e+03 3.925536170321372587e-01
5.048000000000000000e+03 4.001001451836256328e-01
5.049000000000000000e+03 4.082916778148704129e-01
5.050000000000000000e+03 4.162871462689362034e-01
5.051000000000000000e+03 4.231867945114624052e-01
5.052000000000000000e+03 4.308051024340251445e-01
5.053000000000000000e+03 4.397057470004342439e-01
5.054000000000000000e+03 4.492315563492583208e-01
5.055000000000000000e+03 4.578299803956752956e-01
5.056000000000000000e+03 4.651940779463045739e-01
5.057000000000000000e+03 4.746617007125268350e-01
5.058000000000000000e+03 4.825464460295334490e-01
5.059000000000000000e+03 4.910110972039107291e-01
5.060000000000000000e+03 4.987168995336683230e-01
5.061000000000000000e+03 5.065943146012518161e-01
5.062000000000000000e+03 5.137061899766532935e-01
5.063000000000000000e+03 5.198923968226528691e-01
5.064000000000000000e+03 5.278597754569361866e-01
5.065000000000000000e+03 5.355583319319474622e-01
5.066000000000000000e+03 5.432428017340072968e-01
5.067000000000000000e+03 5.515179426364633652e-01
5.068000000000000000e+03 5.594986842195409649e-01
5.069000000000000000e+03 5.665707755392798139e-01
5.070000000000000000e+03 5.741661548904019030e-01
5.071000000000000000e+03 5.826290122074431199e-01
5.072000000000000000e+03 5.903258081921386458e-01
5.073000000000000000e+03 5.988944800028891402e-01
5.074000000000000000e+03 6.070728441694686062e-01
5.075000000000000000e+03 6.153882605854351651e-01
5.076000000000000000e+03 6.238112498140363504e-01
5.077000000000000000e+03 6.310508254809169548e-01
5.078000000000000000e+03 6.408848374557264416e-01
5.079000000000000000e+03 6.492056176383059762e-01
5.080000000000000000e+03 6.570627911567112900e-01
5.081000000000000000e+03 6.650667259312426083e-01
5.082000000000000000e+03 6.736724119006894940e-01
5.083000000000000000e+03 6.814497275720169389e-01
5.084000000000000000e+03 6.895658507373162438e-01
5.085000000000000000e+03 6.987827365588038520e-01
5.086000000000000000e+03 7.059661363498617170e-01
5.087000000000000000e+03 7.145314039283615637e-01
5.088000000000000000e+03 7.227640443667543435e-01
5.089000000000000000e+03 7.309760061552399435e-01
5.090000000000000000e+03 7.398705845828773553e-01
5.091000000000000000e+03 7.477189947347172572e-01
5.092000000000000000e+03 7.561026651640699869e-01
5.093000000000000000e+03 7.646406297620024217e-01
5.094000000000000000e+03 7.733270044969519086e-01
5.095000000000000000e+03 7.810489492989627358e-01
5.096000000000000000e+03 7.906534761534217415e-01
5.097000000000000000e+03 7.973188250876951377e-01
5.098000000000000000e+03 8.057017417553340444e-01
5.099000000000000000e+03 8.141472132624318903e-01
5.100000000000000000e+03 8.230267772547171790e-01
5.101000000000000000e+03 8.296188954953791495e-01
5.102000000000000000e+03 8.376368529592485013e-01
5.103000000000000000e+03 8.455552551047179621e-01
5.104000000000000000e+03 8.544054632123189164e-01
5.105000000000000000e+03 8.636089351297365768e-01
5.106000000000000000e+03 8.725671126904752661e-01
5.107000000000000000e+03 8.803578818575424902e-01
5.108000000000000000e+03 8.897875144254387969e-01
5.109000000000000000e+03 8.993401424625683260e-01
5.110000000000000000e+03 9.075176294601240423e-01
5.111000000000000000e+03 9.148491359726903527e-01
5.112000000000000000e+03 9.230099940343414744e-01
5.113000000000000000e+03 9.312853522205172263e-01
5.114000000000000000e+03 9.394223438151755312e-01
5.115000000000000000e+03 9.465556026011717750e-01
5.116000000000000000e+03 9.548488107680116466e-01
5.117000000000000000e+03 9.636559600749019516e-01
5.118000000000000000e+03 9.723343543739993988e-01
5.119000000000000000e+03 9.797369498662251708e-01
5.120000000000000000e+03 9.885090436802248526e-01
5.121000000000000000e+03 9.958768682763589064e-01
5.122000000000000000e+03 1.004493225105762777e+00
5.123000000000000000e+03 1.013189835916089798e+00
5.124000000000000000e+03 1.021355929198088708e+00
5.125000000000000000e+03 1.027694550006404972e+00
5.126000000000000000e+03 1.035945232231543445e+00
5.127000000000000000e+03 1.046359706518500632e+00
5.128000000000000000e+03 1.054031386835761808e+00
5.129000000000000000e+03 1.062155805360786021e+00
5.130000000000000000e+03 1.069018500605423361e+00
5.131000000000000000e+03 1.079593068408329470e+00
5.132000000000000000e+03 1.087581459073204249e+00
5.133000000000000000e+03 1.095056546407535913e+00
5.134000000000000000e+03 1.103789759608710286e+00
5.135000000000000000e+03 1.110736528742870322e+00
5.136000000000000000e+03 1.119306168993386530e+00
5.137000000000000000e+03 1.128802851321991430e+00
5.138000000000000000e+03 1.136953773249549382e+00
5.139000000000000000e+03 1.145752775068346052e+00
5.140000000000000000e+03 1.152911064330924384e+00
5.141000000000000000e+03 1.161822682231863579e+00
5.142000000000000000e+03 1.169893572239276258e+00
5.143000000000000000e+03 1.178087454096939712e+00
5.144000000000000000e+03 1.186388287315531143e+00
5.145000000000000000e+03 1.194629090007465644e+00
5.146000000000000000e+03 1.202197016986414013e+00
5.147000000000000000e+03 1.209131474486248470e+00
5.148000000000000000e+03 1.217241399419908943e+00
5.149000000000000000e+03 1.226660916207411356e+00
5.150000000000000000e+03 1.234044620320517760e+00
5.151000000000000000e+03 1.240552154250338379e+00
5.152000000000000000e+03 1.249827051133768352e+00
5.153000000000000000e+03 1.258148541360750050e+00
5.154000000000000000e+03 1.264467832169245964e+00
5.155000000000000000e+03 1.274405298482017779e+00
5.156000000000000000e+03 1.282666777145811787e+00
5.157000000000000000e+03 1.288837550695403733e+00
5.158000000000000000e+03 1.294609361514222901e+00
5.159000000000000000e+03 1.303082623478855728e+00
5.160000000000000000e+03 1.312441741327263545e+00
5.161000000000000000e+03 1.320321454665989602e+00
5.162000000000000000e+03 1.329176984415244789e+00
5.163000000000000000e+03 1.337164864803561670e+00
5.164000000000000000e+03 1.345479001402492658e+00
5.165000000000000000e+03 1.353066308323223721e+00
5.166000000000000000e+03 1.362058801367272087e+00
5.167000000000000000e+03 1.372386963496298629e+00
5.168000000000000000e+03 1.378614057970538376e+00
5.169000000000000000e+03 1.387404121915426281e+00
5.170000000000000000e+03 1.396559009279854102e+00
5.171000000000000000e+03 1.406444471245761108e+00
5.172000000000000000e+03 1.414513626023358173e+00
5.173000000000000000e+03 1.422722097447805423e+00
5.174000000000000000e+03 1.430904220941214833e+00
5.175000000000000000e+03 1.440762002177143897e+00
5.176000000000000000e+03 1.448900003323210228e+00
5.177000000000000000e+03 1.454115560435496946e+00
5.178000000000000000e+03 1.462463132236390129e+00
5.179000000000000000e+03 1.471890749175691626e+00
5.180000000000000000e+03 1.480309277935757173e+00
5.181000000000000000e+03 1.490082279001500920e+00
5.182000000000000000e+03 1.497514171461373778e+00
5.183000000000000000e+03 1.506176790180681513e+00
5.184000000000000000e+03 1.513888245578526970e+00
5.185000000000000000e+03 1.522367249855359761e+00
5.186000000000000000e+03 1.530177905042749087e+00
5.187000000000000000e+03 1.537265350837452749e+00
5.188000000000000000e+03 1.544271535415973950e+00
5.189000000000000000e+03 1.551192804474359699e+00
5.190000000000000000e+03 1.559504683262374014e+00
5.191000000000000000e+03 1.565572338822253995e+00
5.192000000000000000e+03 1.574378062249967014e+00
5.193000000000000000e+03 1.584165615100318059e+00
5.194000000000000000e+03 1.589026989036425919e+00
5.195000000000000000e+03 1.596788457616864276e+00
5.196000000000000000e+03 1.603002387534942619e+00
5.197000000000000000e+03 1.611602768437676358e+00
5.198000000000000000e+03 1.619863039953606032e+00
5.199000000000000000e+03 1.627552136118366244e+00
5.200000000000000000e+03 1.635090300728497148e+00
5.201000000000000000e+03 1.644783116429228587e+00
5.202000000000000000e+03 1.652751610795874404e+00
5.203000000000000000e+03 1.660033516689872757e+00
5.204000000000000000e+03 1.668147305683722159e+00
5.205000000000000000e+03 1.677576826786950415e+00
5.206000000000000000e+03 1.684973805907572286e+00
5.207000000000000000e+03 1.692853964381168197e+00
5.208000000000000000e+03 1.702028326939001746e+00
5.209000000000000000e+03 1.708990512794628325e+00
5.210000000000000000e+03 1.716104714452097335e+00
5.211000000000000000e+03 1.725775410930677323e+00
5.212000000000000000e+03 1.732959552757944444e+00
5.213000000000000000e+03 1.740068584481514691e+00
5.214000000000000000e+03 1.747881377474351128e+00
5.215000000000000000e+03 1.757277823102495473e+00
5.216000000000000000e+03 1.763523370190396733e+00
5.217000000000000000e+03 1.772802070914141659e+00
5.218000000000000000e+03 1.780309722288927921e+00
5.219000000000000000e+03 1.787526596222202668e+00
5.220000000000000000e+03 1.795230677001897979e+00
5.221000000000000000e+03 1.803173516834586154e+00
5.222000000000000000e+03 1.811284144864200973e+00
5.223000000000000000e+03 1.818593550394286273e+00
5.224000000000000000e+03 1.826216852874849250e+00
5.225000000000000000e+03 1.834445323666153094e+00
5.226000000000000000e+03 1.842545620803044848e+00
5.227000000000000000e+03 1.849375665441165273e+00
5.228000000000000000e+03 1.856491623897586374e+00
5.229000000000000000e+03 1.864793887193374688e+00
5.230000000000000000e+03 1.873186543701486961e+00
5.231000000000000000e+03 1.884097891716647100e+00
5.232000000000000000e+03 1.892573792064413896e+00
5.233000000000000000e+03 1.902284738289347965e+00
5.234000000000000000e+03 1.912340798230336425e+00
5.235000000000000000e+03 1.921208236604006414e+00
5.236000000000000000e+03 1.927593707748811447e+00
5.237000000000000000e+03 1.933791732672277552e+00
5.238000000000000000e+03 1.939659901800194541e+00
5.239000000000000000e+03 1.948042234074511159e+00
5.240000000000000000e+03 1.955302008007539838e+00
5.241000000000000000e+03 1.962485655626529768e+00
5.242000000000000000e+03 1.971446354894401454e+00
5.243000000000000000e+03 1.979141264303423631e+00
5.244000000000000000e+03 1.987393892527929085e+00
5.245000000000000000e+03 1.994157559233284749e+00
5.246000000000000000e+03 2.002907987500801568e+00
5.247000000000000000e+03 2.011992160956932896e+00
5.248000000000000000e+03 2.021594706490753790e+00
5.249000000000000000e+03 2.028686778213880881e+00
5.250000000000000000e+03 2.036007070222912052e+00
5.251000000000000000e+03 2.042998049573313768e+00
5.252000000000000000e+03 2.052487017533673352e+00
5.253000000000000000e+03 2.061431920665933948e+00
5.254000000000000000e+03 2.070113708412712139e+00
5.255000000000000000e+03 2.075713346419944649e+00
5.256000000000000000e+03 2.085038374754322188e+00
5.257000000000000000e+03 2.094402715952813576e+00
5.258000000000000000e+03 2.102982691004554816e+00
5.259000000000000000e+03 2.110794276415252302e+00
5.260000000000000000e+03 2.119653643009947519e+00
5.261000000000000000e+03 2.127254883303522526e+00
5.262000000000000000e+03 2.136856390913109749e+00
5.263000000000000000e+03 2.146543581267160050e+00
5.264000000000000000e+03 2.155046258033515461e+00
5.265000000000000000e+03 2.162748187400387767e+00
5.266000000000000000e+03 2.170264031283408723e+00
5.267000000000000000e+03 2.177396180778834012e+00
5.268000000000000000e+03 2.187809765230327219e+00
5.269000000000000000e+03 2.195950392889267189e+00
5.270000000000000000e+03 2.204785650689891074e+00
5.271000000000000000e+03 2.212578343852912077e+00
5.272000000000000000e+03 2.220902293251004078e+00
5.273000000000000000e+03 2.226822096865758827e+00
5.274000000000000000e+03 2.238196135291057765e+00
5.275000000000000000e+03 2.245692673204302547e+00
5.276000000000000000e+03 2.253147045916038760e+00
5.277000000000000000e+03 2.261414335073669957e+00
5.278000000000000000e+03 2.270405987645180090e+00
5.279000000000000000e+03 2.278444008459520553e+00
5.280000000000000000e+03 2.286406418881996583e+00
5.281000000000000000e+03 2.296566895737963243e+00
5.282000000000000000e+03 2.304603790324894153e+00
5.283000000000000000e+03 2.311023175101173610e+00
5.284000000000000000e+03 2.318095866158723428e+00
5.285000000000000000e+03 2.325944007637287481e+00
5.286000000000000000e+03 2.334399976944589117e+00
5.287000000000000000e+03 2.342670317338898744e+00
5.288000000000000000e+03 2.352906122016558133e+00
5.289000000000000000e+03 2.360737802624774506e+00
5.290000000000000000e+03 2.369200989920657197e+00
5.291000000000000000e+03 2.378760755604951260e+00
5.292000000000000000e+03 2.388540070782160019e+00
5.293000000000000000e+03 2.396618913142117613e+00
5.294000000000000000e+03 2.402883013740914731e+00
5.295000000000000000e+03 2.412181216728057187e+00
5.296000000000000000e+03 2.419185146246089158e+00
5.297000000000000000e+03 2.429089840065006722e+00
5.298000000000000000e+03 2.437692601679307458e+00
5.299000000000000000e+03 2.445675439377155147e+00
5.300000000000000000e+03 2.454867504840195114e+00
5.301000000000000000e+03 2.463546492362933105e+00
5.302000000000000000e+03 2.469274420411065485e+00
5.303000000000000000e+03 2.477003829147718772e+00
5.304000000000000000e+03 2.485410377627514045e+00
5.305000000000000000e+03 2.497453003416078232e+00
5.306000000000000000e+03 2.505171784503429588e+00
5.307000000000000000e+03 2.513144692002317271e+00
5.308000000000000000e+03 2.519861691491705802e+00
5.309000000000000000e+03 2.530390530408479499e+00
5.310000000000000000e+03 2.536399506335557330e+00
5.311000000000000000e+03 2.544694038036741990e+00
5.312000000000000000e+03 2.552180995489512494e+00
5.313000000000000000e+03 2.559778040368846597e+00
5.314000000000000000e+03 2.567314687032880460e+00
5.315000000000000000e+03 2.575559153727639661e+00
5.316000000000000000e+03 2.583720721688933963e+00
5.317000000000000000e+03 2.589386941160516376e+00
5.318000000000000000e+03 2.597747633076467277e+00
5.319000000000000000e+03 2.605867911630062039e+00
5.320000000000000000e+03 2.612965754906770410e+00
5.321000000000000000e+03 2.620751371945333918e+00
5.322000000000000000e+03 2.626775097977267936e+00
5.323000000000000000e+03 2.634786470340249487e+00
5.324000000000000000e+03 2.643496696921501243e+00
5.325000000000000000e+03 2.651297792783271934e+00
5.326000000000000000e+03 2.661435534321472840e+00
5.327000000000000000e+03 2.670627950102037129e+00
5.328000000000000000e+03 2.676690258542623102e+00
5.329000000000000000e+03 2.684869650427903931e+00
5.330000000000000000e+03 2.693545097717027215e+00
5.331000000000000000e+03 2.702586860749384368e+00
5.332000000000000000e+03 2.712496316280955444e+00
5.333000000000000000e+03 2.721519694881286977e+00
5.334000000000000000e+03 2.728491235372871415e+00
5.335000000000000000e+03 2.734929109676431214e+00
5.336000000000000000e+03 2.745694037126495957e+00
5.337000000000000000e+03 2.754212769726658294e+00
5.338000000000000000e+03 2.760771119095154713e+00
5.339000000000000000e+03 2.767425140468873668e+00
5.340000000000000000e+03 2.777541369036898633e+00
5.341000000000000000e+03 2.785171316548702425e+00
5.342000000000000000e+03 2.792585403034741010e+00
5.343000000000000000e+03 2.801745416470998951e+00
5.344000000000000000e+03 2.809462848401605317e+00
5.345000000000000000e+03 2.816623013165766576e+00
5.346000000000000000e+03 2.823542783675806245e+00
5.347000000000000000e+03 2.834978911973666360e+00
5.348000000000000000e+03 2.841043226778254382e+00
5.349000000000000000e+03 2.847119569344163992e+00
5.350000000000000000e+03 2.855735473076936870e+00
5.351000000000000000e+03 2.868666638442075367e+00
5.352000000000000000e+03 2.874569595837201064e+00
5.353000000000000000e+03 2.882842923195058749e+00
5.354000000000000000e+03 2.888795148551864145e+00
5.355000000000000000e+03 2.895986094935128818e+00
5.356000000000000000e+03 2.906717984837044355e+00
5.357000000000000000e+03 2.917301234724165138e+00
5.358000000000000000e+03 2.925576288191998220e+00
5.359000000000000000e+03 2.935151587129001260e+00
5.360000000000000000e+03 2.946894071865023168e+00
5.361000000000000000e+03 2.954354889550639740e+00
5.362000000000000000e+03 2.960881446880069490e+00
5.363000000000000000e+03 2.967556194312370277e+00
5.364000000000000000e+03 2.973376400918039675e+00
5.365000000000000000e+03 2.982021581931191268e+00
5.366000000000000000e+03 2.987831855732236974e+00
5.367000000000000000e+03 2.994686288260371310e+00
5.368000000000000000e+03 3.002153138355841744e+00
5.369000000000000000e+03 3.008116364261923525e+00
5.370000000000000000e+03 3.018373728522259380e+00
5.371000000000000000e+03 3.027310335498615945e+00
5.372000000000000000e+03 3.034021801997765611e+00
5.373000000000000000e+03 3.043503449190435362e+00
5.374000000000000000e+03 3.050795467680124773e+00
5.375000000000000000e+03 3.058840062014610339e+00
5.376000000000000000e+03 3.063813336921882069e+00
5.377000000000000000e+03 3.074293867920700141e+00
5.378000000000000000e+03 3.081690520174804160e+00
5.379000000000000000e+03 3.090808100604839570e+00
5.380000000000000000e+03 3.099269747082654458e+00
5.381000000000000000e+03 3.106511251522542150e+00
5.382000000000000000e+03 3.116143145558322392e+00
5.383000000000000000e+03 3.125717599680008174e+00
5.384000000000000000e+03 3.133308996051169970e+00
5.385000000000000000e+03 3.142799589948068739e+00
5.386000000000000000e+03 3.150971243000782351e+00
5.387000000000000000e+03 3.160605795396482787e+00
5.388000000000000000e+03 3.170393469555129240e+00
5.389000000000000000e+03 3.177926528504491532e+00
5.390000000000000000e+03 3.188465977120414241e+00
5.391000000000000000e+03 3.197789940315806323e+00
5.392000000000000000e+03 3.205531961062346724e+00
5.393000000000000000e+03 3.213006809399064689e+00
5.394000000000000000e+03 3.222840954769578214e+00
5.395000000000000000e+03 3.230400500039875666e+00
5.396000000000000000e+03 3.240266400391069723e+00
5.397000000000000000e+03 3.244489340906659525e+00
