# time(ps)	msd(nm^2)	#D_bar=1.5720449324090017e-09,D_std=1.4273723106656426e-10
5.000000000000000000e+03 0.000000000000000000e+00
5.001000000000000000e+03 1.236594956072549489e-02
5.002000000000000000e+03 1.993318306075201815e-02
5.003000000000000000e+03 2.736202230292653081e-02
5.004000000000000000e+03 3.428217119640775135e-02
5.005000000000000000e+03 4.129494453233387846e-02
5.006000000000000000e+03 4.819306528757486691e-02
5.007000000000000000e+03 5.473721906306246859e-02
5.008000000000000000e+03 6.158480869399177160e-02
5.009000000000000000e+03 6.777450301344430106e-02
5.010000000000000000e+03 7.362096631337725072e-02
5.011000000000000000e+03 7.993102056639540820e-02
5.012000000000000000e+03 8.648253770101636817e-02
5.013000000000000000e+03 9.279509897269898333e-02
5.014000000000000000e+03 9.969636907653200986e-02
5.015000000000000000e+03 1.061368632884253232e-01
5.016000000000000000e+03 1.125840066349695495e-01
5.017000000000000000e+03 1.192591111054496361e-01
5.018000000000000000e+03 1.259396088690984961e-01
5.019000000000000000e+03 1.319503280094691255e-01
5.020000000000000000e+03 1.386488038017635871e-01
5.021000000000000000e+03 1.450118290053472592e-01
5.022000000000000000e+03 1.510653801191421952e-01
5.023000000000000000e+03 1.574458998347084970e-01
5.024000000000000000e+03 1.638304060035281895e-01
5.025000000000000000e+03 1.692175704524629121e-01
5.026000000000000000e+03 1.751757048235999259e-01
5.027000000000000000e+03 1.816952703301868144e-01
5.028000000000000000e+03 1.867737911239502335e-01
5.029000000000000000e+03 1.934617573495895082e-01
5.030000000000000000e+03 2.003239244506472561e-01
5.031000000000000000e+03 2.059069002999200926e-01
5.032000000000000000e+03 2.126210722090706440e-01
5.033000000000000000e+03 2.187031361791821615e-01
5.034000000000000000e+03 2.252694309325444511e-01
5.035000000000000000e+03 2.305469265059819362e-01
5.036000000000000000e+03 2.371409447230990175e-01
5.037000000000000000e+03 2.442899769449989877e-01
5.038000000000000000e+03 2.506704730079287735e-01
5.039000000000000000e+03 2.564388640721639301e-01
5.040000000000000000e+03 2.629580333119345692e-01
5.041000000000000000e+03 2.695253070195517409e-01
5.042000000000000000e+03 2.755250568238515885e-01
5.043000000000000000e+03 2.819494311014811294e-01
5.044000000000000000e+03 2.886506161992509756e-01
5.045000000000000000e+03 2.947447002123274040e-01
5.046000000000000000e+03 3.007609628874159391e-01
5.047000000000000000e+03 3.071540224741375336e-01
5.048000000000000000e+03 3.139009381097460083e-01
5.049000000000000000e+03 3.196736681650556577e-01
5.050000000000000000e+03 3.262783934199620650e-01
5.051000000000000000e+03 3.335312571222819877e-01
5.052000000000000000e+03 3.401637436473179954e-01
5.053000000000000000e+03 3.473775456822107977e-01
5.054000000000000000e+03 3.538057115342884695e-01
5.055000000000000000e+03 3.601653592170230844e-01
5.056000000000000000e+03 3.663800640711705192e-01
5.057000000000000000e+03 3.724445274897984492e-01
5.058000000000000000e+03 3.788937253800648830e-01
5.059000000000000000e+03 3.848926381459309987e-01
5.060000000000000000e+03 3.913709150798738157e-01
5.061000000000000000e+03 3.979968797592890462e-01
5.062000000000000000e+03 4.043325695915827023e-01
5.063000000000000000e+03 4.111030365928771135e-01
5.064000000000000000e+03 4.183232585967533446e-01
5.065000000000000000e+03 4.247957160737776405e-01
5.066000000000000000e+03 4.306720663252334158e-01
5.067000000000000000e+03 4.370290388379781121e-01
5.068000000000000000e+03 4.450318979838540634e-01
5.069000000000000000e+03 4.509009037320575453e-01
5.070000000000000000e+03 4.578134542041354949e-01
5.071000000000000000e+03 4.630446231932865975e-01
5.072000000000000000e+03 4.690798716318040906e-01
5.073000000000000000e+03 4.750028638234213285e-01
5.074000000000000000e+03 4.818930132426912927e-01
5.075000000000000000e+03 4.877634541193641149e-01
5.076000000000000000e+03 4.933674934932166245e-01
5.077000000000000000e+03 4.995752320213924236e-01
5.078000000000000000e+03 5.056536914431859486e-01
5.079000000000000000e+03 5.111255726738578309e-01
5.080000000000000000e+03 5.173194302452936988e-01
5.081000000000000000e+03 5.232751181768992010e-01
5.082000000000000000e+03 5.289151635245672445e-01
5.083000000000000000e+03 5.354000292883981382e-01
5.084000000000000000e+03 5.409292072719996680e-01
5.085000000000000000e+03 5.467885084000841944e-01
5.086000000000000000e+03 5.545470325530520439e-01
5.087000000000000000e+03 5.605362849765351818e-01
5.088000000000000000e+03 5.679180485861640149e-01
5.089000000000000000e+03 5.736203536533174274e-01
5.090000000000000000e+03 5.803361144898430135e-01
5.091000000000000000e+03 5.865269075878082328e-01
5.092000000000000000e+03 5.932261151359193851e-01
5.093000000000000000e+03 5.994178989198469809e-01
5.094000000000000000e+03 6.063890545708792157e-01
5.095000000000000000e+03 6.125907300010561274e-01
5.096000000000000000e+03 6.200464707329159664e-01
5.097000000000000000e+03 6.265241599461385258e-01
5.098000000000000000e+03 6.322237935141908904e-01
5.099000000000000000e+03 6.373022883278983697e-01
5.100000000000000000e+03 6.447748461223776761e-01
5.101000000000000000e+03 6.514995506074692244e-01
5.102000000000000000e+03 6.579032558865015590e-01
5.103000000000000000e+03 6.645082342056997105e-01
5.104000000000000000e+03 6.695113583973472116e-01
5.105000000000000000e+03 6.756309295079065969e-01
5.106000000000000000e+03 6.827768619476802803e-01
5.107000000000000000e+03 6.898545964558920884e-01
5.108000000000000000e+03 6.947543891270951955e-01
5.109000000000000000e+03 7.000936523316405591e-01
5.110000000000000000e+03 7.080305151712326106e-01
5.111000000000000000e+03 7.134525551871648830e-01
5.112000000000000000e+03 7.197511112879194650e-01
5.113000000000000000e+03 7.259527294976370060e-01
5.114000000000000000e+03 7.313780837588838013e-01
5.115000000000000000e+03 7.376083562487648626e-01
5.116000000000000000e+03 7.441116333764695723e-01
5.117000000000000000e+03 7.495400751204717160e-01
5.118000000000000000e+03 7.558089460645396329e-01
5.119000000000000000e+03 7.607028354160370043e-01
5.120000000000000000e+03 7.672455519721621542e-01
5.121000000000000000e+03 7.728147119189064940e-01
5.122000000000000000e+03 7.793691075037395555e-01
5.123000000000000000e+03 7.848416075630783029e-01
5.124000000000000000e+03 7.922872827923485017e-01
5.125000000000000000e+03 7.983888120499872398e-01
5.126000000000000000e+03 8.038292068905295018e-01
5.127000000000000000e+03 8.092099313887340939e-01
5.128000000000000000e+03 8.164817419506252838e-01
5.129000000000000000e+03 8.211032383025638204e-01
5.130000000000000000e+03 8.276862760574096312e-01
5.131000000000000000e+03 8.355218657236247459e-01
5.132000000000000000e+03 8.400086283305335799e-01
5.133000000000000000e+03 8.450869068266856354e-01
5.134000000000000000e+03 8.502354093581906413e-01
5.135000000000000000e+03 8.568344161624000810e-01
5.136000000000000000e+03 8.625124477204825224e-01
5.137000000000000000e+03 8.684709898630775804e-01
5.138000000000000000e+03 8.751154761844209817e-01
5.139000000000000000e+03 8.809710953727601934e-01
5.140000000000000000e+03 8.876074043152821780e-01
5.141000000000000000e+03 8.925140085674466706e-01
5.142000000000000000e+03 8.998166995578341654e-01
5.143000000000000000e+03 9.052989257328091233e-01
5.144000000000000000e+03 9.101134401654431549e-01
5.145000000000000000e+03 9.153775110698888495e-01
5.146000000000000000e+03 9.217891909584169374e-01
5.147000000000000000e+03 9.286652932848253883e-01
5.148000000000000000e+03 9.345723217252696058e-01
5.149000000000000000e+03 9.407753522055491979e-01
5.150000000000000000e+03 9.490017208220460354e-01
5.151000000000000000e+03 9.549135737948942770e-01
5.152000000000000000e+03 9.615211538284543780e-01
5.153000000000000000e+03 9.649722951556007899e-01
5.154000000000000000e+03 9.719343795473611713e-01
5.155000000000000000e+03 9.795070346953371754e-01
5.156000000000000000e+03 9.853603735424231180e-01
5.157000000000000000e+03 9.911352702549525162e-01
5.158000000000000000e+03 9.981309494139657401e-01
5.159000000000000000e+03 1.004064848763602802e+00
5.160000000000000000e+03 1.009762885986812186e+00
5.161000000000000000e+03 1.016693057408409429e+00
5.162000000000000000e+03 1.023143274216425036e+00
5.163000000000000000e+03 1.028922258407349855e+00
5.164000000000000000e+03 1.036840716770716986e+00
5.165000000000000000e+03 1.042870037744916045e+00
5.166000000000000000e+03 1.049268496528505290e+00
5.167000000000000000e+03 1.055717406348576803e+00
5.168000000000000000e+03 1.061791260431683037e+00
5.169000000000000000e+03 1.067088407183449883e+00
5.170000000000000000e+03 1.074427071980067261e+00
5.171000000000000000e+03 1.080731983638945293e+00
5.172000000000000000e+03 1.087608471673632504e+00
5.173000000000000000e+03 1.092335603956192003e+00
5.174000000000000000e+03 1.099181186282445877e+00
5.175000000000000000e+03 1.105139540414962207e+00
5.176000000000000000e+03 1.111929321440439322e+00
5.177000000000000000e+03 1.116568496189420001e+00
5.178000000000000000e+03 1.125221379597982407e+00
5.179000000000000000e+03 1.130164324291168754e+00
5.180000000000000000e+03 1.138804641753908165e+00
5.181000000000000000e+03 1.143328848187886271e+00
5.182000000000000000e+03 1.150475051667954052e+00
5.183000000000000000e+03 1.157052494230724982e+00
5.184000000000000000e+03 1.164227853502546095e+00
5.185000000000000000e+03 1.170911222185406997e+00
5.186000000000000000e+03 1.177653756368727711e+00
5.187000000000000000e+03 1.183379885961138855e+00
5.188000000000000000e+03 1.189707110117351085e+00
5.189000000000000000e+03 1.197097653283013319e+00
5.190000000000000000e+03 1.204125395880805138e+00
5.191000000000000000e+03 1.210730302901494637e+00
5.192000000000000000e+03 1.216686440876552755e+00
5.193000000000000000e+03 1.223179821589636562e+00
5.194000000000000000e+03 1.231683946942526697e+00
5.195000000000000000e+03 1.237459743893335906e+00
5.196000000000000000e+03 1.243338733400617402e+00
5.197000000000000000e+03 1.248633230451552834e+00
5.198000000000000000e+03 1.255877374467395891e+00
5.199000000000000000e+03 1.261808087485177143e+00
5.200000000000000000e+03 1.268826673598516308e+00
5.201000000000000000e+03 1.275407942514571236e+00
5.202000000000000000e+03 1.282579563231694975e+00
5.203000000000000000e+03 1.288522792695061314e+00
5.204000000000000000e+03 1.293747692108154324e+00
5.205000000000000000e+03 1.300379856049068028e+00
5.206000000000000000e+03 1.305599085187154840e+00
5.207000000000000000e+03 1.313022319097366664e+00
5.208000000000000000e+03 1.318764585464719419e+00
5.209000000000000000e+03 1.324150348996359083e+00
5.210000000000000000e+03 1.329909601968432220e+00
5.211000000000000000e+03 1.337744520278203231e+00
5.212000000000000000e+03 1.343340672084263110e+00
5.213000000000000000e+03 1.349600909853737596e+00
5.214000000000000000e+03 1.356696608709910379e+00
5.215000000000000000e+03 1.363604864847092202e+00
5.216000000000000000e+03 1.369712799919976520e+00
5.217000000000000000e+03 1.376151032069373059e+00
5.218000000000000000e+03 1.382798560914539010e+00
5.219000000000000000e+03 1.388657075488377801e+00
5.220000000000000000e+03 1.394846997488112139e+00
5.221000000000000000e+03 1.402221817289079908e+00
5.222000000000000000e+03 1.409906510398501345e+00
5.223000000000000000e+03 1.415509204713125024e+00
5.224000000000000000e+03 1.421821604531908534e+00
5.225000000000000000e+03 1.427439204473343715e+00
5.226000000000000000e+03 1.433831591833205188e+00
5.227000000000000000e+03 1.440627956390380993e+00
5.228000000000000000e+03 1.445337389234512271e+00
5.229000000000000000e+03 1.451652096945141857e+00
5.230000000000000000e+03 1.458106720939514434e+00
5.231000000000000000e+03 1.464824183025057680e+00
5.232000000000000000e+03 1.471105405413914324e+00
5.233000000000000000e+03 1.476714908054896247e+00
5.234000000000000000e+03 1.481668214343843326e+00
5.235000000000000000e+03 1.486999535030789188e+00
5.236000000000000000e+03 1.494559276217506172e+00
5.237000000000000000e+03 1.498234897189670400e+00
5.238000000000000000e+03 1.505320357973612966e+00
5.239000000000000000e+03 1.511623374091254135e+00
5.240000000000000000e+03 1.517207976447212170e+00
5.241000000000000000e+03 1.525496054149809488e+00
5.242000000000000000e+03 1.531016877492268558e+00
5.243000000000000000e+03 1.535571138442508810e+00
5.244000000000000000e+03 1.541827241504002854e+00
5.245000000000000000e+03 1.549128654873560329e+00
5.246000000000000000e+03 1.555204659870693673e+00
5.247000000000000000e+03 1.560852169460719585e+00
5.248000000000000000e+03 1.566790101793076095e+00
5.249000000000000000e+03 1.571425348312135872e+00
5.250000000000000000e+03 1.578743655189635886e+00
5.251000000000000000e+03 1.585677565317304749e+00
5.252000000000000000e+03 1.590010550059969718e+00
5.253000000000000000e+03 1.596651483868797072e+00
5.254000000000000000e+03 1.601895215473477352e+00
5.255000000000000000e+03 1.606188433510915559e+00
5.256000000000000000e+03 1.614098237658303070e+00
5.257000000000000000e+03 1.621009430052741562e+00
5.258000000000000000e+03 1.625535079108343828e+00
5.259000000000000000e+03 1.629832487560454402e+00
5.260000000000000000e+03 1.635602035219707817e+00
5.261000000000000000e+03 1.640852038368347143e+00
5.262000000000000000e+03 1.646973655640133538e+00
5.263000000000000000e+03 1.652862624213809362e+00
5.264000000000000000e+03 1.659746696229964513e+00
5.265000000000000000e+03 1.665306938110836077e+00
5.266000000000000000e+03 1.670139887068006423e+00
5.267000000000000000e+03 1.676741329374767053e+00
5.268000000000000000e+03 1.682753577156672398e+00
5.269000000000000000e+03 1.688545890384250958e+00
5.270000000000000000e+03 1.693813102964370820e+00
5.271000000000000000e+03 1.698956610664488887e+00
5.272000000000000000e+03 1.703523246522934853e+00
5.273000000000000000e+03 1.711478299640472933e+00
5.274000000000000000e+03 1.715867223891001103e+00
5.275000000000000000e+03 1.725948291051956351e+00
5.276000000000000000e+03 1.732410903809562308e+00
5.277000000000000000e+03 1.739582851954869502e+00
5.278000000000000000e+03 1.746215148501925718e+00
5.279000000000000000e+03 1.749644066644094886e+00
5.280000000000000000e+03 1.757503506493948819e+00
5.281000000000000000e+03 1.764115418025425486e+00
5.282000000000000000e+03 1.770104862394786815e+00
5.283000000000000000e+03 1.777070606776645301e+00
5.284000000000000000e+03 1.783307209317647413e+00
5.285000000000000000e+03 1.788554918803866522e+00
5.286000000000000000e+03 1.793864416092161740e+00
5.287000000000000000e+03 1.801178778996543217e+00
5.288000000000000000e+03 1.804702160850403914e+00
5.289000000000000000e+03 1.811090324341304125e+00
5.290000000000000000e+03 1.818636955382332276e+00
5.291000000000000000e+03 1.825794346521771194e+00
5.292000000000000000e+03 1.832041506691584720e+00
5.293000000000000000e+03 1.840405572558206693e+00
5.294000000000000000e+03 1.846661942799887157e+00
5.295000000000000000e+03 1.851875947013733814e+00
5.296000000000000000e+03 1.857345702156186995e+00
5.297000000000000000e+03 1.864162756299215795e+00
5.298000000000000000e+03 1.870976881299700745e+00
5.299000000000000000e+03 1.876106797475662447e+00
5.300000000000000000e+03 1.883285295395622727e+00
5.301000000000000000e+03 1.888316407279362563e+00
5.302000000000000000e+03 1.894465885465107746e+00
5.303000000000000000e+03 1.900950275300040460e+00
5.304000000000000000e+03 1.908297411903502550e+00
5.305000000000000000e+03 1.913957473209926485e+00
5.306000000000000000e+03 1.921330095321413856e+00
5.307000000000000000e+03 1.927044686211479840e+00
5.308000000000000000e+03 1.934243960304867116e+00
5.309000000000000000e+03 1.938663318573480732e+00
5.310000000000000000e+03 1.945825792342896987e+00
5.311000000000000000e+03 1.953122702704535696e+00
5.312000000000000000e+03 1.959886537582155697e+00
5.313000000000000000e+03 1.965551716335236732e+00
5.314000000000000000e+03 1.973195915827675506e+00
5.315000000000000000e+03 1.980829446883428879e+00
5.316000000000000000e+03 1.988566672915504929e+00
5.317000000000000000e+03 1.995055303119477763e+00
5.318000000000000000e+03 1.999384714762369342e+00
5.319000000000000000e+03 2.008721371605283412e+00
5.320000000000000000e+03 2.016469201890248808e+00
5.321000000000000000e+03 2.020877396114287627e+00
5.322000000000000000e+03 2.027492375146774162e+00
5.323000000000000000e+03 2.033964626675559995e+00
5.324000000000000000e+03 2.039707072727263260e+00
5.325000000000000000e+03 2.045425675104536545e+00
5.326000000000000000e+03 2.054644056653220474e+00
5.327000000000000000e+03 2.061337687477232894e+00
5.328000000000000000e+03 2.066398916395884910e+00
5.329000000000000000e+03 2.073306207808236490e+00
5.330000000000000000e+03 2.079399317181299889e+00
5.331000000000000000e+03 2.085356965746198554e+00
5.332000000000000000e+03 2.092151076604449322e+00
5.333000000000000000e+03 2.098142516423786130e+00
5.334000000000000000e+03 2.105691443246507699e+00
5.335000000000000000e+03 2.110783685956682643e+00
5.336000000000000000e+03 2.116229050954181456e+00
5.337000000000000000e+03 2.124859132918099469e+00
5.338000000000000000e+03 2.130287567017570716e+00
5.339000000000000000e+03 2.138201785314651104e+00
5.340000000000000000e+03 2.144894840603783326e+00
5.341000000000000000e+03 2.152788862500872202e+00
5.342000000000000000e+03 2.159408088865733877e+00
5.343000000000000000e+03 2.165597704024542214e+00
5.344000000000000000e+03 2.171201081048874659e+00
5.345000000000000000e+03 2.177906159294976440e+00
5.346000000000000000e+03 2.183793753366622070e+00
5.347000000000000000e+03 2.193543421427408546e+00
5.348000000000000000e+03 2.199302453843373861e+00
5.349000000000000000e+03 2.205191520509265146e+00
5.350000000000000000e+03 2.209445865873307380e+00
5.351000000000000000e+03 2.215960126604353597e+00
5.352000000000000000e+03 2.223434688325911512e+00
5.353000000000000000e+03 2.227515969654871419e+00
5.354000000000000000e+03 2.232975681547135327e+00
5.355000000000000000e+03 2.238754990895590158e+00
5.356000000000000000e+03 2.247369887034099012e+00
5.357000000000000000e+03 2.252071136898464054e+00
5.358000000000000000e+03 2.258778792184496620e+00
5.359000000000000000e+03 2.264811108907065051e+00
5.360000000000000000e+03 2.270672116052536271e+00
5.361000000000000000e+03 2.279354855673654701e+00
5.362000000000000000e+03 2.283553298768543627e+00
5.363000000000000000e+03 2.289354291037907441e+00
5.364000000000000000e+03 2.295837075369698166e+00
5.365000000000000000e+03 2.302479184468587015e+00
5.366000000000000000e+03 2.309237479558067019e+00
5.367000000000000000e+03 2.314826351650177028e+00
5.368000000000000000e+03 2.320120224725631619e+00
5.369000000000000000e+03 2.326820689610072712e+00
5.370000000000000000e+03 2.333300736745197224e+00
5.371000000000000000e+03 2.340601295289540307e+00
5.372000000000000000e+03 2.347038348364452354e+00
5.373000000000000000e+03 2.351016204167926116e+00
5.374000000000000000e+03 2.356972962031289587e+00
5.375000000000000000e+03 2.364268880571638309e+00
5.376000000000000000e+03 2.369394507029699781e+00
5.377000000000000000e+03 2.374916190798319615e+00
5.378000000000000000e+03 2.382130288320875255e+00
5.379000000000000000e+03 2.388272326635935361e+00
5.380000000000000000e+03 2.393715929909357776e+00
5.381000000000000000e+03 2.397880021958123109e+00
5.382000000000000000e+03 2.406194172511024743e+00
5.383000000000000000e+03 2.412613147251189805e+00
5.384000000000000000e+03 2.418339620014977598e+00
5.385000000000000000e+03 2.421560568733819530e+00
5.386000000000000000e+03 2.427198973156159401e+00
5.387000000000000000e+03 2.432713251265267829e+00
5.388000000000000000e+03 2.438722216591004521e+00
5.389000000000000000e+03 2.444502891661629818e+00
5.390000000000000000e+03 2.451168650672547855e+00
5.391000000000000000e+03 2.455679286169627940e+00
5.392000000000000000e+03 2.460749792674230552e+00
5.393000000000000000e+03 2.467492436303032388e+00
5.394000000000000000e+03 2.475086365957108736e+00
5.395000000000000000e+03 2.479522231874012661e+00
5.396000000000000000e+03 2.484915661887516780e+00
5.397000000000000000e+03 2.491471657525924588e+00
